# omega0=1, alpha=0.3
# theta0=0.5, theta_dot0=0
# t_start=0, t_end=50, h=0.00911928
#   t          x(t)                 v(t)       
0  5.000000000000000e-01  0.000000000000000e+00
9.119282013323059e-02 4.980257719907217e-01 -4.307508342461622e-02
1.823856402664613e-01 4.921885117866829e-01 -8.467728603211323e-02
2.735784603996920e-01 4.826346021941237e-01 -1.245446478810625e-01
3.647712805329227e-01 4.695335830069484e-01 -1.624312543617398e-01
4.559641006661534e-01 4.530766846502181e-01 -1.981073589390626e-01
5.471569207993838e-01 4.334753351973170e-01 -2.313598505746879e-01
6.383497409326140e-01 4.109596081880468e-01 -2.619930847418050e-01
7.295425610658441e-01 3.857765786018484e-01 -2.898300609626535e-01
8.207353811990743e-01 3.581885574565368e-01 -3.147138961260018e-01
9.119282013323045e-01 3.284711815180777e-01 -3.365095132287501e-01
1.003121021465535e+00 2.969113430714601e-01 -3.551054413606809e-01
1.094313841598765e+00 2.638049550150232e-01 -3.704156062939593e-01
1.185506661731995e+00 2.294545579682852e-01 -3.823809832071093e-01
1.276699481865225e+00 1.941667878011654e-01 -3.909709846140545e-01
1.367892301998455e+00 1.582497331368845e-01 -3.961844675532140e-01
1.459085122131685e+00 1.220102221168261e-01 -3.980502638102770e-01
1.550277942264916e+00 8.575108530934396e-02 -3.966271639008145e-01
1.641470762398146e+00 4.976844653162917e-02 -3.920033175317976e-01
1.732663582531376e+00 1.434909519430609e-02 -3.842950476096085e-01
1.823856402664606e+00 -2.023200751078960e-02 -3.736451086711383e-01
1.915049222797836e+00 -5.371404049986914e-02 -3.602204510966044e-01
2.006242042931067e+00 -8.585241145998551e-02 -3.442095772435838e-01
2.097434863064297e+00 -1.164205896899057e-01 -3.258195930058928e-01
2.188627683197527e+00 -1.452116604392492e-01 -3.052730673415132e-01
2.279820503330757e+00 -1.720395884212274e-01 -2.828048129702702e-01
2.371013323463987e+00 -1.967401882316036e-01 -2.586586944294442e-01
2.462206143597217e+00 -2.191718085233834e-01 -2.330845563266234e-01
2.553398963730448e+00 -2.392157444624866e-01 -2.063353466828772e-01
2.644591783863678e+00 -2.567763988919000e-01 -1.786644896329829e-01
2.735784603996908e+00 -2.717812166030560e-01 -1.503235403272407e-01
2.826977424130138e+00 -2.841804181595587e-01 -1.215601343428076e-01
2.918170244263368e+00 -2.939465599855323e-01 -9.261622562453103e-02
3.009363064396598e+00 -3.010739461717589e-01 -6.372659192168491e-02
3.100555884529828e+00 -3.055779149925448e-01 -3.511757546677329e-02
3.191748704663059e+00 -3.074940198279943e-01 -7.006019496241578e-03
3.282941524796289e+00 -3.068771204206869e-01 2.040164192540737e-02
3.374134344929519e+00 -3.038003965156232e-01 4.691018275678276e-02
3.465327165062749e+00 -2.983542922537485e-01 7.233631071748650e-02
3.556519985195979e+00 -2.906453964775970e-01 9.650935176390212e-02
3.647712805329209e+00 -2.807952615680476e-01 1.192719168909482e-01
3.738905625462440e+00 -2.689391617043855e-01 1.404805654078866e-01
3.830098445595670e+00 -2.552247905998277e-01 1.600064689487940e-01
3.921291265728900e+00 -2.398108988197957e-01 1.777360708469670e-01
4.012484085862130e+00 -2.228658716869942e-01 1.935717267778514e-01
4.103676905995361e+00 -2.045662504063882e-01 2.074323053268607e-01
4.194869726128591e+00 -1.850952012478666e-01 2.192537218280959e-01
4.286062546261821e+00 -1.646409402119904e-01 2.289893757742702e-01
4.377255366395051e+00 -1.433951233592229e-01 2.366104614873068e-01
4.468448186528281e+00 -1.215512156820692e-01 2.421061235625847e-01
4.559641006661511e+00 -9.930285382727916e-02 2.454834326834136e-01
4.650833826794742e+00 -7.684221993978352e-02 2.467671634087331e-01
4.742026646927972e+00 -5.435844524675856e-02 2.459993629911223e-01
4.833219467061202e+00 -3.203606262272415e-02 2.432387086095552e-01
4.924412287194432e+00 -1.005352722356976e-02 2.385596589768467e-01
5.015605107327662e+00 1.141817664517305e-02 2.320514144834352e-01
5.106797927460892e+00 3.221682589213126e-02 2.238167073012333e-01
5.197990747594122e+00 5.219013193523840e-02 2.139704487303821e-01
5.289183567727353e+00 7.119678531782181e-02 2.026382652016158e-01
5.380376387860583e+00 8.910736301624164e-02 1.899549565778240e-01
5.471569207993813e+00 1.058050929065978e-01 1.760629107201793e-01
5.562762028127043e+00 1.211864729019240e-01 1.611105068339984e-01
5.653954848260273e+00 1.351617451116109e-01 1.452505371465691e-01
5.745147668393503e+00 1.476552278889116e-01 1.286386723410531e-01
5.836340488526734e+00 1.586055107319267e-01 1.114319912751686e-01
5.927533308659964e+00 1.679655186372418e-01 9.378759026121428e-02
6.018726128793194e+00 1.757024536588853e-01 7.586128196455781e-02
6.109918948926424e+00 1.817976221174836e-01 5.780638913203327e-02
6.201111769059654e+00 1.862461561825265e-01 3.977263416314331e-02
6.292304589192884e+00 1.890566384830274e-01 2.190512218004649e-02
6.383497409326115e+00 1.902506380710441e-01 4.343412849102871e-03
6.474690229459345e+00 1.898621655575721e-01 -1.277932521028644e-02
6.565883049592575e+00 1.879370546498418e-01 -2.933708406410636e-02
6.657075869725805e+00 1.845322767252655e-01 -4.521171640768994e-02
6.748268689859035e+00 1.797151945509290e-01 -6.029357099823819e-02
6.839461509992265e+00 1.735627608543296e-01 -7.448206716558975e-02
6.930654330125495e+00 1.661606672092328e-01 -8.768621007921355e-02
7.021847150258726e+00 1.576024486397608e-01 -9.982504642386540e-02
7.113039970391956e+00 1.479885494674445e-01 -1.108280581934346e-01
7.204232790525186e+00 1.374253562141904e-01 -1.206354906288017e-01
7.295425610658416e+00 1.260242037983484e-01 -1.291986090478048e-01
7.386618430791646e+00 1.139003617790048e-01 -1.364798785527234e-01
7.477811250924876e+00 1.011720079649536e-01 -1.424530604189699e-01
7.569004071058107e+00 8.795919725526724e-02 -1.471032193881258e-01
7.660196891191337e+00 7.438283406398452e-02 -1.504266370839787e-01
7.751389711324567e+00 6.056365705237132e-02 -1.524306282749084e-01
7.842582531457797e+00 4.662124510648869e-02 -1.531332586175652e-01
7.933775351591027e+00 3.267305352402312e-02 -1.525629647064455e-01
8.024968171724257e+00 1.883348919365956e-02 -1.507580795769700e-01
8.116160991857488e+00 5.213033157361708e-03 -1.477662691168579e-01
8.207353811990718e+00 -8.082581651216947e-03 -1.436438869898445e-01
8.298546632123948e+00 -2.095313048007728e-02 -1.384552575423755e-01
8.389739452257178e+00 -3.330458856642551e-02 -1.322718976488994e-01
8.480932272390408e+00 -4.504974965078663e-02 -1.251716894875507e-01
8.572125092523638e+00 -5.610876729259182e-02 -1.172380167927128e-01
8.663317912656868e+00 -6.640961623328361e-02 -1.085588772060396e-01
8.754510732790099e+00 -7.588847219025745e-02 -9.922598297649574e-02
8.845703552923329e+00 -8.449000955025206e-02 -8.933386150282832e-02
8.936896373056559e+00 -9.216761743241385e-02 -7.897896614830335e-02
9.028089193189789e+00 -9.888353548536934e-02 -6.825880647927210e-02
9.119282013323019e+00 -1.046089115540385e-01 -5.727110568212424e-02
9.210474833456249e+00 -1.093237839940668e-01 -4.611299149031189e-02
9.301667653589480e+00 -1.130169919261827e-01 -3.488022558787566e-02
9.392860473722710e+00 -1.156860171180376e-01 -2.366647521748214e-02
9.484053293855940e+00 -1.173367614712155e-01 -1.256262966102331e-02
9.575246113989170e+00 -1.179832642940110e-01 -1.656163411691221e-03
9.666438934122400e+00 -1.176473636762276e-01 8.969452768926847e-03
9.757631754255630e+00 -1.163583063709387e-01 1.923529212205238e-02
9.848824574388860e+00 -1.141523106489538e-01 2.906746291406478e-02
9.940017394522091e+00 -1.110720866411732e-01 3.839754967896185e-02
1.003121021465532e+01 -1.071663187350924e-01 4.716300407563783e-02
1.012240303478855e+01 -1.024891146532299e-01 5.530748460824058e-02
1.021359585492178e+01 -9.709942591753569e-02 6.278114428867872e-02
1.030478867505501e+01 -9.106044449477600e-02 6.954086517541747e-02
1.039598149518824e+01 -8.443898051934624e-02 7.555043864334839e-02
1.048717431532147e+01 -7.730482609437156e-02 8.078069025875365e-02
1.057836713545470e+01 -6.973011026920821e-02 8.520954827399689e-02
1.066955995558793e+01 -6.178865036987211e-02 8.882205503004374e-02
1.076075277572116e+01 -5.355530490629930e-02 9.161032096117237e-02
1.085194559585439e+01 -4.510533328499898e-02 9.357342142423233e-02
1.094313841598762e+01 -3.651376750736971e-02 9.471723720384428e-02
1.103433123612085e+01 -2.785480092474391e-02 9.505424024660628e-02
1.112552405625408e+01 -1.920119894598856e-02 9.460322691797678e-02
1.121671687638731e+01 -1.062373635031556e-02 9.338900181871768e-02
1.130790969652054e+01 -2.190665548270893e-03 9.144201590735226e-02
1.139910251665377e+01 6.032780237694928e-03 8.879796331743796e-02
1.149029533678700e+01 1.398484532763615e-02 8.549734180483688e-02
1.158148815692023e+01 2.160766839860736e-02 8.158498218845704e-02
1.167268097705346e+01 2.884765518799004e-02 7.710955244370409e-02
1.176387379718669e+01 3.565580503869488e-02 7.212304226490382e-02
1.185506661731992e+01 4.198798977161701e-02 6.668023393304698e-02
1.194625943745315e+01 4.780518389896515e-02 6.083816521750813e-02
1.203745225758638e+01 5.307364570524008e-02 5.465558982015997e-02
1.212864507771961e+01 5.776504921131999e-02 4.819244055738968e-02
1.221983789785284e+01 6.185656749388591e-02 4.150930009262661e-02
1.231103071798607e+01 6.533090825199178e-02 3.466688360289719e-02
1.240222353811930e+01 6.817630289180523e-02 2.772553731081990e-02
1.249341635825254e+01 7.038645073830292e-02 2.074475635945697e-02
1.258460917838577e+01 7.196042027966701e-02 1.378272506941200e-02
1.267580199851900e+01 7.290250960841639e-02 6.895882209285189e-03
1.276699481865223e+01 7.322206844608586e-02 1.385135413073293e-04
1.285818763878546e+01 7.293328432934065e-02 -6.437626421721449e-03
1.294938045891869e+01 7.205493569879687e-02 -1.278366179394174e-02
1.304057327905192e+01 7.061011477137040e-02 -1.885391041584283e-02
1.313176609918515e+01 6.862592319607320e-02 -2.460616547125920e-02
1.322295891931838e+01 6.613314359447506e-02 -3.000194260135836e-02
1.331415173945161e+01 6.316589017232974e-02 -3.500669166434434e-02
1.340534455958484e+01 5.976124165896546e-02 -3.958997245490768e-02
1.349653737971807e+01 5.595885988587525e-02 -4.372559386843779e-02
1.358773019985130e+01 5.180059735460817e-02 -4.739171617990229e-02
1.367892301998453e+01 4.733009716498997e-02 -5.057091631222024e-02
1.377011584011776e+01 4.259238867588257e-02 -5.325021619752308e-02
1.386130866025099e+01 3.763348224990488e-02 -5.542107458779474e-02
1.395250148038422e+01 3.249996638861277e-02 -5.707934294717417e-02
1.404369430051745e+01 2.723861049368170e-02 -5.822518635234507e-02
1.413488712065068e+01 2.189597639126051e-02 -5.886297063345194e-02
1.422607994078391e+01 1.651804163014450e-02 -5.900111729778696e-02
1.431727276091714e+01 1.114983740981347e-02 -5.865192808300498e-02
1.440846558105037e+01 5.835103812608739e-03 -5.783138127641622e-02
1.449965840118360e+01 6.159648071448959e-04 -5.655890220284509e-02
1.459085122131683e+01 -4.467374739972191e-03 -5.485711051738233e-02
1.468204404145006e+01 -9.376908056667049e-03 -5.275154713423041e-02
1.477323686158329e+01 -1.407707974011265e-02 -5.027038377363319e-02
1.486442968171652e+01 -1.853501186862597e-02 -4.744411821245800e-02
1.495562250184975e+01 -2.272070178999109e-02 -4.430525837928685e-02
1.504681532198298e+01 -2.660719071259655e-02 -4.088799844279921e-02
1.513800814211621e+01 -3.017070251157138e-02 -3.722789000551981e-02
1.522920096224944e+01 -3.339075244267514e-02 -3.336151143790256e-02
1.532039378238267e+01 -3.625022572859601e-02 -2.932613827560012e-02
1.541158660251590e+01 -3.873542624261908e-02 -2.515941746173188e-02
1.550277942264913e+01 -4.083609576099741e-02 -2.089904805241679e-02
1.559397224278236e+01 -4.254540448602975e-02 -1.658247082408700e-02
1.568516506291559e+01 -4.385991375561474e-02 -1.224656903100518e-02
1.577635788304882e+01 -4.477951205120737e-02 -7.927382366092943e-03
1.586755070318205e+01 -4.530732559437430e-02 -3.659835981828769e-03
1.595874352331528e+01 -4.544960498258537e-02 5.225137662743836e-04
1.604993634344851e+01 -4.521558945778300e-02 4.587715381192448e-03
1.614112916358174e+01 -4.461735052707361e-02 8.505638803395004e-03
1.623232198371497e+01 -4.366961676407051e-02 1.224817139938832e-02
1.632351480384820e+01 -4.238958171244972e-02 1.578939242669600e-02
1.641470762398143e+01 -4.079669689054319e-02 1.910572521338279e-02
1.650590044411466e+01 -3.891245195755806e-02 2.217606645917305e-02
1.659709326424789e+01 -3.676014414841725e-02 2.498189223332159e-02
1.668828608438112e+01 -3.436463911528206e-02 2.750734041292008e-02
1.677947890451435e+01 -3.175212532945958e-02 2.973926947517578e-02
1.687067172464758e+01 -2.894986419747127e-02 3.166729372881004e-02
1.696186454478081e+01 -2.598593802940627e-02 3.328379524294858e-02
1.705305736491404e+01 -2.288899796618549e-02 3.458391290596601e-02
1.714425018504727e+01 -1.968801392499876e-02 3.556550922036715e-02
1.723544300518050e+01 -1.641202855907085e-02 3.622911561107876e-02
1.732663582531373e+01 -1.308991714937645e-02 3.657785719121025e-02
1.741782864544696e+01 -9.750155252495056e-03 3.661735808885835e-02
1.750902146558019e+01 -6.420595821249407e-03 3.635562858818638e-02
1.760021428571342e+01 -3.128257394128052e-03 3.580293547513577e-02
1.769140710584665e+01 1.008751829887609e-04 3.497165710024097e-02
1.778259992597988e+01 3.242036182129527e-03 3.387612477594762e-02
1.787379274611311e+01 6.271849396453859e-03 3.253245221183888e-02
1.796498556624634e+01 9.168482510789768e-03 3.095835475702513e-02
1.805617838637957e+01 1.191178459243458e-02 2.917296026397609e-02
1.814737120651280e+01 1.448340602187398e-02 2.719661341216524e-02
1.823856402664603e+01 1.686690035103691e-02 2.505067533349575e-02
1.832975684677927e+01 1.904780774409433e-02 2.275732036551491e-02
1.842094966691250e+01 2.101371982090322e-02 2.033933172424965e-02
1.851214248704573e+01 2.275432588440515e-02 1.781989783777485e-02
1.860333530717896e+01 2.426144066918878e-02 1.522241101624820e-02
1.869452812731219e+01 2.552901389777083e-02 1.257027005610701e-02
1.878572094744542e+01 2.655312207287777e-02 9.886688287439802e-03
1.887691376757865e+01 2.733194306724068e-02 7.194508476156133e-03
1.896810658771188e+01 2.786571419643557e-02 4.516025888277160e-03
1.905929940784511e+01 2.815667457455690e-02 1.872820714053138e-03
1.915049222797834e+01 2.820899265658150e-02 -7.143990639491857e-04
1.924168504811157e+01 2.802867996485717e-02 -3.225943391026456e-03
1.933287786824480e+01 2.762349208002125e-02 -5.643273599319397e-03
1.942407068837803e+01 2.700281804867708e-02 -7.949122875642979e-03
1.951526350851126e+01 2.617755942124535e-02 -1.012760312841677e-02
1.960645632864449e+01 2.516000018351978e-02 -1.216429776442169e-02
1.969764914877772e+01 2.396366888458267e-02 -1.404634000651247e-02
1.978884196891095e+01 2.260319429189855e-02 -1.576247650341959e-02
1.988003478904418e+01 2.109415592165425e-02 -1.730311610202413e-02
1.997122760917741e+01 1.945293079883896e-02 -1.866036377056728e-02
2.006242042931064e+01 1.769653779728827e-02 -1.982803977765100e-02
2.015361324944387e+01 1.584248089513131e-02 -2.080168434598221e-02
2.024480606957710e+01 1.390859265602281e-02 -2.157854811088496e-02
2.033599888971033e+01 1.191287921152448e-02 -2.215756882082790e-02
2.042719170984356e+01 9.873367975414386e-03 -2.253933481968631e-02
2.051838452997679e+01 7.807959267024913e-03 -2.272603594722460e-02
2.060957735011002e+01 5.734282958505020e-03 -2.272140258438029e-02
2.070077017024325e+01 3.669561190821062e-03 -2.253063365240858e-02
2.079196299037648e+01 1.630478126089343e-03 -2.216031444892952e-02
2.088315581050971e+01 -3.669423797171604e-04 -2.161832526862309e-02
2.097434863064294e+01 -2.307450388648140e-03 -2.091374181109614e-02
2.106554145077617e+01 -4.176674075727889e-03 -2.005672842280378e-02
2.115673427090940e+01 -5.961213902549965e-03 -1.905842525353130e-02
2.124792709104263e+01 -7.648726264739304e-03 -1.793083043069749e-02
2.133911991117586e+01 -9.227996209741768e-03 -1.668667836667441e-02
2.143031273130909e+01 -1.068899892323922e-02 -1.533931531565865e-02
2.152150555144232e+01 -1.202294978397950e-02 -1.390257328775688e-02
2.161269837157555e+01 -1.322234288704651e-02 -1.239064340938695e-02
2.170389119170878e+01 -1.428097803372085e-02 -1.081794979147800e-02
2.179508401184201e+01 -1.519397628130217e-02 -9.199024930997640e-03
2.188627683197524e+01 -1.595778423785510e-02 -7.548387627816438e-03
2.197746965210847e+01 -1.657016737414928e-02 -5.880424348644794e-03
2.206866247224170e+01 -1.703019270750980e-02 -4.209274913554805e-03
2.215985529237493e+01 -1.733820128937258e-02 -2.548723319227738e-03
2.225104811250816e+01 -1.749577099961565e-02 -9.120944473121696e-04
2.234224093264139e+01 -1.750567021584465e-02 6.878426631333888e-04
2.243343375277462e+01 -1.737180298444771e-02 2.238964372525412e-03
2.252462657290785e+01 -1.709914637216032e-02 3.729874295104814e-03
2.261581939304108e+01 -1.669368072190626e-02 5.149976995360498e-03
2.270701221317431e+01 -1.616231357467557e-02 6.489543148802542e-03
2.279820503330754e+01 -1.551279805007723e-02 7.739765867695556e-03
2.288939785344077e+01 -1.475364650192619e-02 8.892807970863262e-03
2.298059067357400e+01 -1.389404028179985e-02 9.941840054850477e-03
2.307178349370723e+01 -1.294373645297709e-02 1.088106930109197e-02
2.316297631384046e+01 -1.191297229965319e-02 1.170575902980230e-02
2.325416913397369e+01 -1.081236847194448e-02 1.241223908557552e-02
2.334536195410692e+01 -9.652831596144417e-03 1.299790721167266e-02
2.343655477424015e+01 -8.445457162199134e-03 1.346122163917961e-02
2.352774759437338e+01 -7.201433476711578e-03 1.380168518314235e-02
2.361894041450661e+01 -5.931947440280568e-03 1.401982119994275e-02
2.371013323463984e+01 -4.648092873000198e-03 1.411714181809769e-02
2.380132605477307e+01 -3.360782071892069e-03 1.409610890790428e-02
2.389251887490630e+01 -2.080661239363782e-03 1.396008830351203e-02
2.398371169503953e+01 -8.180303729618480e-04 1.371329783372143e-02
2.407490451517276e+01 4.172318457741161e-04 1.336074975478975e-02
2.416609733530600e+01 1.615737681112025e-03 1.290818820953311e-02
2.425729015543923e+01 2.768654067450666e-03 1.236202236188515e-02
2.434848297557246e+01 3.867760064129947e-03 1.172925587471509e-02
2.443967579570569e+01 4.905497738203668e-03 1.101741341110529e-02
2.453086861583892e+01 5.875016235009541e-03 1.023446484549676e-02
2.462206143597215e+01 6.770208859018807e-03 9.388747871257765e-03
2.471325425610538e+01 7.585743049839397e-03 8.488889685505216e-03
2.480444707623861e+01 8.317083199857623e-03 7.543728420661602e-03
2.489563989637184e+01 8.960506320334526e-03 6.562234975559128e-03
2.498683271650507e+01 9.513110621353788e-03 5.553435877248356e-03
2.507802553663830e+01 9.972817127411193e-03 4.526337778403752e-03
2.516921835677153e+01 1.033836450423821e-02 3.489854164740508e-03
2.526041117690476e+01 1.060929732329904e-02 2.452734812579887e-03
2.535160399703799e+01 1.078594803796438e-02 1.423498499047697e-03
2.544279681717122e+01 1.086941298935771e-02 4.103694267902849e-04
2.553398963730445e+01 1.086152280004167e-02 -5.787822180285955e-04
2.562518245743768e+01 1.076480754985312e-02 -1.536495200905466e-03
2.571637527757091e+01 1.058245716013247e-02 -2.455767340705226e-03
2.580756809770414e+01 1.031827744019235e-02 -3.330100499429208e-03
2.589876091783737e+01 9.976642273033647e-03 -4.153540230620332e-03
2.598995373797060e+01 9.562442435982811e-03 -4.920709906513433e-03
2.608114655810383e+01 9.081031566065061e-03 -5.626839193672001e-03
2.617233937823706e+01 8.538169789552796e-03 -6.267786796215351e-03
2.626353219837029e+01 7.939965540277542e-03 -6.840057434469901e-03
2.635472501850352e+01 7.292816092041348e-03 -7.340813074621173e-03
2.644591783863675e+01 6.603347326915427e-03 -7.767878471356874e-03
2.653711065876998e+01 5.878353253506247e-03 -8.119741130245620e-03
2.662830347890321e+01 5.124735777568312e-03 -8.395545839374062e-03
2.671949629903644e+01 4.349445211842204e-03 -8.595083960268103e-03
2.681068911916967e+01 3.559421992916863e-03 -8.718777706071091e-03
2.690188193930290e+01 2.761540050501263e-03 -8.767659670085963e-03
