# omega0=1, alpha=4
# theta0=0.5, theta_dot0=0
# t_start=0, t_end=50, h=0.00911928
#   t          x(t)                 v(t)       
0  5.000000000000000e-01  0.000000000000000e+00
9.119282013323059e-02 4.989677626508798e-01 -2.133629036843702e-02
1.823856402664613e-01 4.963080645878004e-01 -3.608282021159165e-02
2.735784603996920e-01 4.925262118770387e-01 -4.622319685261751e-02
3.647712805329227e-01 4.879745240942323e-01 -5.316209407543886e-02
4.559641006661534e-01 4.828970222404231e-01 -5.789344431502016e-02
5.471569207993838e-01 4.774611340961216e-01 -6.111975612167311e-02
6.383497409326140e-01 4.717801910236982e-01 -6.333673411145800e-02
7.295425610658441e-01 4.659293945861642e-01 -6.489328269394198e-02
8.207353811990743e-01 4.599571527295735e-01 -6.603405349481378e-02
9.119282013323045e-01 4.538931325189039e-01 -6.692961732488784e-02
1.003121021465535e+00 4.477539842774162e-01 -6.769786419376700e-02
1.094313841598765e+00 4.415474139119311e-01 -6.841918617729306e-02
1.185506661731995e+00 4.352750830838345e-01 -6.914725406031505e-02
1.276699481865225e+00 4.289346771681912e-01 -6.991667123547193e-02
1.367892301998455e+00 4.225213819223837e-01 -7.074841446761865e-02
1.459085122131685e+00 4.160289396097011e-01 -7.165370615869378e-02
1.550277942264916e+00 4.094504055899662e-01 -7.263677496369927e-02
1.641470762398146e+00 4.027786911432685e-01 -7.369682852926804e-02
1.732663582531376e+00 3.960069533138946e-01 -7.482946781227640e-02
1.823856402664606e+00 3.891288748590774e-01 -7.602770559086601e-02
1.915049222797836e+00 3.821388648421491e-01 -7.728270439982776e-02
2.006242042931067e+00 3.750322015204283e-01 -7.858431553535594e-02
2.097434863064297e+00 3.678051328805712e-01 -7.992147696256112e-02
2.188627683197527e+00 3.604549457139645e-01 -8.128251107585023e-02
2.279820503330757e+00 3.529800109674798e-01 -8.265535129006911e-02
2.371013323463987e+00 3.453798108715976e-01 -8.402771794970730e-02
2.462206143597217e+00 3.376549517698857e-01 -8.538725802150111e-02
2.553398963730448e+00 3.298071654605647e-01 -8.672165876453720e-02
2.644591783863678e+00 3.218393010772789e-01 -8.801874254263743e-02
2.735784603996908e+00 3.137553089863732e-01 -8.926654779574780e-02
2.826977424130138e+00 3.055602177938733e-01 -9.045339966460028e-02
2.918170244263368e+00 2.972601052887063e-01 -9.156797268482267e-02
3.009363064396598e+00 2.888620639651258e-01 -9.259934720441725e-02
3.100555884529828e+00 2.803741616424203e-01 -9.353706064096770e-02
3.191748704663059e+00 2.718053976164149e-01 -9.437115431738843e-02
3.282941524796289e+00 2.631656547226427e-01 -9.509221635159046e-02
3.374134344929519e+00 2.544656476565273e-01 -9.569142089347502e-02
3.465327165062749e+00 2.457168678751728e-01 -9.616056387896353e-02
3.556519985195979e+00 2.369315253938874e-01 -9.649209538877764e-02
3.647712805329209e+00 2.281224877851370e-01 -9.667914864755765e-02
3.738905625462440e+00 2.193032166859141e-01 -9.671556566815520e-02
3.830098445595670e+00 2.104877021198760e-01 -9.659591953042053e-02
3.921291265728900e+00 2.016903949418587e-01 -9.631553327907470e-02
4.012484085862130e+00 1.929261377137034e-01 -9.587049542804563e-02
4.103676905995361e+00 1.842100943211491e-01 -9.525767206654316e-02
4.194869726128591e+00 1.755576786414895e-01 -9.447471557335420e-02
4.286062546261821e+00 1.669844825705077e-01 -9.352006995899856e-02
4.377255366395051e+00 1.585062037147750e-01 -9.239297286947512e-02
4.468448186528281e+00 1.501385730516726e-01 -9.109345429957107e-02
4.559641006661511e+00 1.418972828544852e-01 -8.962233207751734e-02
4.650833826794742e+00 1.337979151736836e-01 -8.798120419572270e-02
4.742026646927972e+00 1.258558711581518e-01 -8.617243807409806e-02
4.833219467061202e+00 1.180863014917369e-01 -8.419915685289303e-02
4.924412287194432e+00 1.105040382112467e-01 -8.206522282089415e-02
5.015605107327662e+00 1.031235281620145e-01 -7.977521809224701e-02
5.106797927460892e+00 9.595876833654177e-02 -7.733442265108958e-02
5.197990747594122e+00 8.902324333064482e-02 -7.474878988771322e-02
5.289183567727353e+00 8.232986514008972e-02 -7.202491975322990e-02
5.380376387860583e+00 7.589091550901517e-02 -6.917002966189238e-02
5.471569207993813e+00 6.971799102960158e-02 -6.619192327147970e-02
5.562762028127043e+00 6.382195118052091e-02 -6.309895727274248e-02
5.653954848260273e+00 5.821286947974851e-02 -5.990000631901501e-02
5.745147668393503e+00 5.289998791536674e-02 -5.660442622696802e-02
5.836340488526734e+00 4.789167480605527e-02 -5.322201557930269e-02
5.927533308659964e+00 4.319538623103676e-02 -4.976297586016560e-02
6.018726128793194e+00 3.881763115731117e-02 -4.623787025436033e-02
6.109918948926424e+00 3.476394038002704e-02 -4.265758124218184e-02
6.201111769059654e+00 3.103883937976278e-02 -3.903326712300325e-02
6.292304589192884e+00 2.764582518826693e-02 -3.537631760266624e-02
6.383497409326115e+00 2.458734734177918e-02 -3.169830858228784e-02
6.474690229459345e+00 2.186479298836372e-02 -2.801095628928145e-02
6.565883049592575e+00 1.947847620267983e-02 -2.432607089514384e-02
6.657075869725805e+00 1.742763154824265e-02 -2.065550976878868e-02
6.748268689859035e+00 1.571041191345282e-02 -1.701113051878818e-02
6.839461509992265e+00 1.432389063347109e-02 -1.340474398266093e-02
6.930654330125495e+00 1.326406789537374e-02 -9.848067326142624e-03
7.021847150258726e+00 1.252588140895292e-02 -6.352677420000896e-03
7.113039970391956e+00 1.210322131004831e-02 -2.929964666204509e-03
7.204232790525186e+00 1.198894924745629e-02 4.089125510768727e-04
7.295425610658416e+00 1.217492158832259e-02 3.653072611285192e-03
7.386618430791646e+00 1.265201666056442e-02 6.791954419837209e-03
7.477811250924876e+00 1.341016593438601e-02 9.815360006022678e-03
7.569004071058107e+00 1.443838902845839e-02 1.271349577596797e-02
7.660196891191337e+00 1.572483240995552e-02 1.547701224216351e-02
7.751389711324567e+00 1.725681164150751e-02 1.809704205453069e-02
7.842582531457797e+00 1.902085701238849e-02 2.056523616304255e-02
7.933775351591027e+00 2.100276237604478e-02 2.287379794852483e-02
8.024968171724257e+00 2.318763700153122e-02 2.501551516642390e-02
8.116160991857488e+00 2.555996023269742e-02 2.698378955797036e-02
8.207353811990718e+00 2.810363873618389e-02 2.877266399418874e-02
8.298546632123948e+00 3.080206610756770e-02 3.037684703046964e-02
8.389739452257178e+00 3.363818459444749e-02 3.179173476276270e-02
8.480932272390408e+00 3.659454868596516e-02 3.301342989067831e-02
8.572125092523638e+00 3.965339031030046e-02 3.403875790769150e-02
8.663317912656868e+00 4.279668537509428e-02 3.486528035400257e-02
8.754510732790099e+00 4.600622138058954e-02 3.549130508319856e-02
8.845703552923329e+00 4.926366583153523e-02 3.591589350945329e-02
8.936896373056559e+00 5.255063517156942e-02 3.613886481738488e-02
9.028089193189789e+00 5.584876396285292e-02 3.616079713165975e-02
9.119282013323019e+00 5.913977403412068e-02 3.598302565781052e-02
9.210474833456249e+00 6.240554332199126e-02 3.560763781937131e-02
9.301667653589480e+00 6.562817413325384e-02 3.503746542920548e-02
9.392860473722710e+00 6.879006055985183e-02 3.427607394471859e-02
9.484053293855940e+00 7.187395478331532e-02 3.332774886746289e-02
9.575246113989170e+00 7.486303201136564e-02 3.219747935742757e-02
9.666438934122400e+00 7.774095379623434e-02 3.089093914109056e-02
9.757631754255630e+00 8.049192949181291e-02 2.941446480013007e-02
9.848824574388860e+00 8.310077561499783e-02 2.777503153463434e-02
9.940017394522091e+00 8.555297288543820e-02 2.598022650080808e-02
1.003121021465532e+01 8.783472072726854e-02 2.403821982867328e-02
1.012240303478855e+01 8.993298902625980e-02 2.195773343023411e-02
1.021359585492178e+01 9.183556694610702e-02 1.974800771316066e-02
1.030478867505501e+01 9.353110861826341e-02 1.741876631938398e-02
1.039598149518824e+01 9.500917553081187e-02 1.498017901222043e-02
1.048717431532147e+01 9.626027545332980e-02 1.244282283987884e-02
1.057836713545470e+01 9.727589774656045e-02 9.817641707553962e-03
1.066955995558793e+01 9.804854491796486e-02 7.115904494857305e-03
1.076075277572116e+01 9.857176029691635e-02 4.349161860137151e-03
1.085194559585439e+01 9.884015171643785e-02 1.529201878321358e-03
1.094313841598762e+01 9.884941110199597e-02 -1.331995335725768e-03
1.103433123612085e+01 9.859632988198021e-02 -4.222303860742302e-03
1.112552405625408e+01 9.807881014912936e-02 -7.129498896140365e-03
1.121671687638731e+01 9.729587151733031e-02 -1.004130421339764e-02
1.130790969652054e+01 9.624765363391231e-02 -1.294543995675125e-02
1.139910251665377e+01 9.493541432377685e-02 -1.582967061256365e-02
1.149029533678700e+01 9.336152335841925e-02 -1.868185296147314e-02
1.158148815692023e+01 9.152945186007000e-02 -2.148998382271720e-02
1.167268097705346e+01 8.944375736875404e-02 -2.424224739600868e-02
1.176387379718669e+01 8.711006461796529e-02 -2.692706200323633e-02
1.185506661731992e+01 8.453504208278462e-02 -2.953312603023031e-02
1.194625943745315e+01 8.172637438253336e-02 -3.204946286804362e-02
1.203745225758638e+01 7.869273063832666e-02 -3.446546465379802e-02
1.212864507771961e+01 7.544372890404051e-02 -3.677093461324830e-02
1.221983789785284e+01 7.198989680709238e-02 -3.895612781092179e-02
1.231103071798607e+01 6.834262855290840e-02 -4.101179011904774e-02
1.240222353811930e+01 6.451413846385745e-02 -4.292919522352426e-02
1.249341635825254e+01 6.051741123962362e-02 -4.470017949385630e-02
1.258460917838577e+01 5.636614914131406e-02 -4.631717455428292e-02
1.267580199851900e+01 5.207471631591711e-02 -4.777323740509366e-02
1.276699481865223e+01 4.765808049090607e-02 -4.906207795628079e-02
1.285818763878546e+01 4.313175228070992e-02 -5.017808385001969e-02
1.294938045891869e+01 3.851172235734177e-02 -5.111634246381585e-02
1.304057327905192e+01 3.381439674660955e-02 -5.187266000228796e-02
1.313176609918515e+01 2.905653051896826e-02 -5.244357760223443e-02
1.322295891931838e+01 2.425516015017217e-02 -5.282638439261268e-02
1.331415173945161e+01 1.942753483143058e-02 -5.301912746809880e-02
1.340534455958484e+01 1.459104701176966e-02 -5.302061875174771e-02
1.349653737971807e+01 9.763162456781395e-03 -5.283043873871283e-02
1.358773019985130e+01 4.961350107947478e-03 -5.244893712879922e-02
1.367892301998453e+01 2.030120253262641e-04 -5.187723037063015e-02
1.377011584011776e+01 -4.494586306335098e-03 -5.111719615425363e-02
1.386130866025099e+01 -9.114385031958938e-03 -5.017146490197873e-02
1.395250148038422e+01 -1.363959806994918e-02 -4.904340831903545e-02
1.404369430051745e+01 -1.805378008055008e-02 -4.773712507624932e-02
1.413488712065068e+01 -2.234089200086477e-02 -4.625742370631068e-02
1.422607994078391e+01 -2.648536489646973e-02 -4.460980280343117e-02
1.431727276091714e+01 -3.047216188808147e-02 -4.280042862328318e-02
1.440846558105037e+01 -3.428683792085310e-02 -4.083611018621096e-02
1.449965840118360e+01 -3.791559715351377e-02 -3.872427199190579e-02
1.459085122131683e+01 -4.134534775463879e-02 -3.647292445819825e-02
1.468204404145006e+01 -4.456375390379168e-02 -3.409063220049043e-02
1.477323686158329e+01 -4.755928480606530e-02 -3.158648027179668e-02
1.486442968171652e+01 -5.032126053963566e-02 -2.897003848654200e-02
1.495562250184975e+01 -5.283989456731290e-02 -2.625132395433982e-02
1.504681532198298e+01 -5.510633275472533e-02 -2.344076195307585e-02
1.513800814211621e+01 -5.711268874971282e-02 -2.054914527388475e-02
1.522920096224944e+01 -5.885207558975503e-02 -1.758759217411940e-02
1.532039378238267e+01 -6.031863341684356e-02 -1.456750307824771e-02
1.541158660251590e+01 -6.150755319215643e-02 -1.150051617080722e-02
1.550277942264913e+01 -6.241509631624224e-02 -8.398462030108614e-03
1.559397224278236e+01 -6.303861007420207e-02 -5.273317456276403e-03
1.568516506291559e+01 -6.337653883959703e-02 -2.137158652386032e-03
1.577635788304882e+01 -6.342843098553033e-02 9.978860771908708e-04
1.586755070318205e+01 -6.319494146656551e-02 4.119683941710476e-03
1.595874352331528e+01 -6.267783005084517e-02 7.216145417403432e-03
1.604993634344851e+01 -6.187995519795401e-02 1.027527195932686e-02
1.614112916358174e+01 -6.080526359469171e-02 1.328520348716622e-02
1.623232198371497e+01 -5.945877537794033e-02 1.623426545641377e-02
1.632351480384820e+01 -5.784656509116104e-02 1.911101532314108e-02
1.641470762398143e+01 -5.597573843865258e-02 2.190428820836581e-02
1.650590044411466e+01 -5.385440491945362e-02 2.460324156695831e-02
1.659709326424789e+01 -5.149164644055691e-02 2.719739866629419e-02
1.668828608438112e+01 -4.889748202680077e-02 2.967669068156276e-02
1.677947890451435e+01 -4.608282876227586e-02 3.203149721788725e-02
1.687067172464758e+01 -4.305945911518875e-02 3.425268507426601e-02
1.696186454478081e+01 -3.983995481471022e-02 3.633164507083304e-02
1.705305736491404e+01 -3.643765746425622e-02 3.826032676905111e-02
1.714425018504727e+01 -3.286661609075774e-02 4.003127092414275e-02
1.723544300518050e+01 -2.914153184363064e-02 4.163763952024464e-02
1.732663582531373e+01 -2.527770007022945e-02 4.307324325131621e-02
1.741782864544696e+01 -2.129095000644066e-02 4.433256632458492e-02
1.750902146558019e+01 -1.719758233164145e-02 4.541078847808329e-02
1.760021428571342e+01 -1.301430484643387e-02 4.630380411941494e-02
1.769140710584665e+01 -8.758166539299232e-03 4.700823850905301e-02
1.778259992597988e+01 -4.446490314560556e-03 4.752146092798610e-02
1.787379274611311e+01 -9.680465877168497e-05 4.784159478614369e-02
1.796498556624634e+01 4.273225474129069e-03 4.796752464452027e-02
1.805617838637957e+01 8.645868276832147e-03 4.789890014004790e-02
1.814737120651280e+01 1.300339491948469e-02 4.763613681783752e-02
1.823856402664603e+01 1.732814931608463e-02 4.718041389023440e-02
1.832975684677927e+01 2.160261754760810e-02 4.653366895606256e-02
1.842094966691250e+01 2.580949666667764e-02 4.569858972634575e-02
1.851214248704573e+01 2.993176261334731e-02 4.467860281460604e-02
1.860333530717896e+01 3.395273697737382e-02 4.347785966050779e-02
1.869452812731219e+01 3.785615234905712e-02 4.210121966512938e-02
1.878572094744542e+01 4.162621600826302e-02 4.055423062453214e-02
1.887691376757865e+01 4.524767170948582e-02 3.884310655561975e-02
1.896810658771188e+01 4.870585932967715e-02 3.697470301463155e-02
1.905929940784511e+01 5.198677215497417e-02 3.495649001410815e-02
1.915049222797834e+01 5.507711159233479e-02 3.279652264894169e-02
1.924168504811157e+01 5.796433910236978e-02 3.050340954632641e-02
1.933287786824480e+01 6.063672516030755e-02 2.808627925821347e-02
1.942407068837803e+01 6.308339506300524e-02 2.555474471840250e-02
1.951526350851126e+01 6.529437141121382e-02 2.291886588982027e-02
1.960645632864449e+01 6.726061310791009e-02 2.018911073097980e-02
1.969764914877772e+01 6.897405072543430e-02 1.737631461419831e-02
1.978884196891095e+01 7.042761810643371e-02 1.449163833197245e-02
1.988003478904418e+01 7.161528007623709e-02 1.154652483203046e-02
1.997122760917741e+01 7.253205615729981e-02 8.552654826037755e-03
2.006242042931064e+01 7.317404018979602e-02 5.521901421726669e-03
2.015361324944387e+01 7.353841577632299e-02 2.466283933323410e-03
2.024480606957710e+01 7.362346748304874e-02 -6.020789695097293e-04
2.033599888971033e+01 7.342858774449341e-02 -3.671016608503574e-03
2.042719170984356e+01 7.295427943450034e-02 -6.728353968147114e-03
2.051838452997679e+01 7.220215408181478e-02 -9.761959514948976e-03
2.060957735011002e+01 7.117492572503380e-02 -1.275979298283597e-02
2.070077017024325e+01 6.987640041848178e-02 -1.570995293827181e-02
2.079196299037648e+01 6.831146141775502e-02 -1.860072393467041e-02
2.088315581050971e+01 6.648605009119539e-02 -2.142062306250486e-02
2.097434863064294e+01 6.440714262131506e-02 -2.415844569935702e-02
2.106554145077617e+01 6.208272257809955e-02 -2.680331026318237e-02
2.115673427090940e+01 5.952174946404989e-02 -2.934470177243009e-02
2.124792709104263e+01 5.673412334866013e-02 -3.177251401848652e-02
2.133911991117586e+01 5.373064572762344e-02 -3.407709015929534e-02
2.143031273130909e+01 5.052297675927612e-02 -3.624926154801498e-02
2.152150555144232e+01 4.712358904747177e-02 -3.828038461722699e-02
2.161269837157555e+01 4.354571815608090e-02 -4.016237564749647e-02
2.170389119170878e+01 3.980331005548458e-02 -4.188774325895533e-02
2.179508401184201e+01 3.591096571563582e-02 -4.344961847593993e-02
2.188627683197524e+01 3.188388307336818e-02 -4.484178222743909e-02
2.197746965210847e+01 2.773779661351984e-02 -4.605869016003806e-02
2.206866247224170e+01 2.348891481401255e-02 -4.709549465498679e-02
2.215985529237493e+01 1.915385571419479e-02 -4.794806395676644e-02
2.225104811250816e+01 1.474958087346479e-02 -4.861299833684654e-02
2.234224093264139e+01 1.029332799339003e-02 -4.908764323297608e-02
2.243343375277462e+01 5.802542481216540e-03 -4.937009932109418e-02
2.252462657290785e+01 1.294808235816174e-03 -4.945922949354135e-02
2.261581939304108e+01 -3.212222061223270e-03 -4.935466273347486e-02
2.270701221317431e+01 -7.700896866457879e-03 -4.905679489103417e-02
2.279820503330754e+01 -1.215363562568079e-02 -4.856678638168260e-02
2.288939785344077e+01 -1.655299827603898e-02 -4.788655684111497e-02
2.298059067357400e+01 -2.088175412369789e-02 -4.701877678405002e-02
2.307178349370723e+01 -2.512294982644031e-02 -4.596685632603720e-02
2.316297631384046e+01 -2.925997621647269e-02 -4.473493103805493e-02
2.325416913397369e+01 -3.327663370551630e-02 -4.332784501315539e-02
2.334536195410692e+01 -3.715719602187632e-02 -4.175113123274768e-02
2.343655477424015e+01 -4.088647203750922e-02 -4.001098932737027e-02
2.352774759437338e+01 -4.444986545205108e-02 -3.811426083307940e-02
2.361894041450661e+01 -4.783343211024453e-02 -3.606840204998958e-02
2.371013323463984e+01 -5.102393473913609e-02 -3.388145461418487e-02
2.380132605477307e+01 -5.400889490174832e-02 -3.156201389832526e-02
2.389251887490630e+01 -5.677664197461944e-02 -2.911919535996065e-02
2.398371169503953e+01 -5.931635896761312e-02 -2.656259895999088e-02
2.407490451517276e+01 -6.161812501571879e-02 -2.390227177702779e-02
2.416609733530600e+01 -6.367295438418212e-02 -2.114866894675799e-02
2.425729015543923e+01 -6.547283184023607e-02 -1.831261305889532e-02
2.434848297557246e+01 -6.701074425696195e-02 -1.540525214804129e-02
2.443967579570569e+01 -6.828070832742292e-02 -1.243801641880907e-02
2.453086861583892e+01 -6.927779428020818e-02 -9.422573849945852e-03
2.462206143597215e+01 -6.999814550093884e-02 -6.370784826914425e-03
2.471325425610538e+01 -7.043899397814274e-02 -3.294655957435659e-03
2.480444707623861e+01 -7.059867150623565e-02 -2.062932297876926e-04
2.489563989637184e+01 -7.047661659316562e-02 2.882145320890026e-03
2.498683271650507e+01 -7.007337703559784e-02 5.958497267550401e-03
2.507802553663830e+01 -6.939060814033358e-02 9.010643591332957e-03
2.516921835677153e+01 -6.843106658695342e-02 1.202655644557648e-02
2.526041117690476e+01 -6.719859994341690e-02 1.499434669787666e-02
2.535160399703799e+01 -6.569813186349001e-02 1.790231106030431e-02
2.544279681717122e+01 -6.393564301233969e-02 2.073897861471649e-02
2.553398963730445e+01 -6.191814778434858e-02 2.349315653791905e-02
2.562518245743768e+01 -5.965366689506304e-02 2.615397483044449e-02
2.571637527757091e+01 -5.715119594707751e-02 2.871092985304396e-02
2.580756809770414e+01 -5.442067008745352e-02 3.115392647678394e-02
2.589876091783737e+01 -5.147292489183220e-02 3.347331865598290e-02
2.598995373797060e+01 -4.831965362758182e-02 3.565994823818521e-02
2.608114655810383e+01 -4.497336106497722e-02 3.770518183197459e-02
2.617233937823706e+01 -4.144731402138599e-02 3.960094556166653e-02
2.626353219837029e+01 -3.775548883859094e-02 4.133975754773628e-02
2.635472501850352e+01 -3.391251600756863e-02 4.291475796314650e-02
2.644591783863675e+01 -2.993362216814001e-02 4.431973652841122e-02
2.653711065876998e+01 -2.583456972279271e-02 4.554915732210899e-02
2.662830347890321e+01 -2.163159431454607e-02 4.659818079845140e-02
2.671949629903644e+01 -1.734134042790349e-02 4.746268291921051e-02
2.681068911916967e+01 -1.298079537965198e-02 4.813927132358205e-02
2.690188193930290e+01 -8.567221972481972e-03 4.862529847617134e-02
2.699307475943613e+01 -4.118090089093232e-03 4.891887174999429e-02
